# Matter power spectrum P(k) at redshift z=0
# for k=1.04978e-05 to 1.07687 h/Mpc,
# number of wavenumbers equal to 112
#    1:k (h/Mpc)              2:P (Mpc/h)^3        
       1.049778561929e-05       4.506819929484e+01 
       1.321592908369e-05       5.657875566972e+01 
       1.663786896393e-05       7.240231733854e+01 
       2.094583603679e-05       9.319973394431e+01 
       2.636924525799e-05       1.146869144507e+02 
       3.319691294512e-05       1.435140528435e+02 
       4.179243729973e-05       1.791964394329e+02 
       5.261356133744e-05       2.242596263765e+02 
       6.623654937270e-05       2.803463367982e+02 
       8.338687519485e-05       3.501397960995e+02 
       1.049778561929e-04       4.373342361928e+02 
       1.321592908369e-04       5.461913881157e+02 
       1.663786896393e-04       6.820620598242e+02 
       2.094583603679e-04       8.516394600622e+02 
       2.636924525799e-04       1.063206704998e+03 
       3.319691294512e-04       1.326856015848e+03 
       4.179243729973e-04       1.655103480124e+03 
       5.261356133744e-04       2.063037314964e+03 
       6.623654937270e-04       2.568770874277e+03 
       8.338687519485e-04       3.193656578324e+03 
       1.049778561929e-03       3.962283868551e+03 
       1.321592908369e-03       4.901914059035e+03 
       1.663786896393e-03       6.040815867911e+03 
       2.094583603679e-03       7.405901060577e+03 
       2.636924525799e-03       9.018049776446e+03 
       3.319691294512e-03       1.088593581775e+04 
       4.179243729973e-03       1.299773360882e+04 
       5.261356133744e-03       1.531007440027e+04 
       6.623654937270e-03       1.773402650815e+04 
       8.338687519485e-03       2.011986029273e+04 
       1.049778561929e-02       2.224146620255e+04 
       1.321592908369e-02       2.378807257345e+04 
       1.663786896390e-02       2.438241552633e+04 
       2.094583587082e-02       2.365495825799e+04 
       2.636911872837e-02       2.143196009834e+04 
       3.317937869056e-02       1.805155809490e+04 
       4.120829406624e-02       1.467118099125e+04 
       4.798444742424e-02       1.273411590173e+04 
       5.289746506074e-02       1.178219356681e+04 
       5.694780992335e-02       1.118867431024e+04 
       6.056364813182e-02       1.074065851126e+04 
       6.393573213032e-02       1.034918058509e+04 
       6.716497467566e-02       9.969447692010e+03 
       7.031186225901e-02       9.577489367529e+03 
       7.341611559804e-02       9.161847106625e+03 
       7.650572248419e-02       8.719644633213e+03 
       7.960156020378e-02       8.254466991341e+03 
       8.271996349867e-02       7.774742639432e+03 
       8.587424589942e-02       7.292200660000e+03 
       8.907564861756e-02       6.820208325997e+03 
       9.233395774559e-02       6.372202010180e+03 
       9.565791982369e-02       5.960219123479e+03 
       9.905552975330e-02       5.593490957615e+03 
       1.025342350127e-01       5.277759654706e+03 
       1.061010832874e-01       5.014096538018e+03 
       1.097628307978e-01       4.799408237636e+03 
       1.135260226708e-01       4.625538369237e+03 
       1.173970530133e-01       4.481731878432e+03 
       1.213822100006e-01       4.352927624093e+03 
       1.254877097673e-01       4.223330491395e+03 
       1.297197218884e-01       4.079582722556e+03 
       1.340843885724e-01       3.910895308077e+03 
       1.385878392441e-01       3.712484356167e+03 
       1.432362019019e-01       3.489341928879e+03 
       1.480356124401e-01       3.252337462417e+03 
       1.529922229991e-01       3.016619712439e+03 
       1.581122103294e-01       2.798948060284e+03 
       1.634017851034e-01       2.611972633954e+03 
       1.688672030761e-01       2.461923886076e+03 
       1.745147789810e-01       2.346759992032e+03 
       1.803509040273e-01       2.256753252189e+03 
       1.863820678626e-01       2.177636561243e+03 
       1.926148858558e-01       2.092956657579e+03 
       1.990561325600e-01       1.990635974949e+03 
       2.057127822296e-01       1.868964889544e+03 
       2.125920572962e-01       1.736241518878e+03 
       2.197014857678e-01       1.606425394756e+03 
       2.270489686135e-01       1.492631744499e+03 
       2.346428583438e-01       1.401548770926e+03 
       2.424920502145e-01       1.330995937724e+03 
       2.506060877896e-01       1.271315674693e+03 
       2.589952850160e-01       1.210336850206e+03 
       2.676708675354e-01       1.140199179398e+03 
       2.766451367073e-01       1.062009128879e+03 
       2.859316608238e-01       9.845614395728e+02 
       2.955454993155e-01       9.170610845578e+02 
       3.055034675027e-01       8.623597192919e+02 
       3.158244517782e-01       8.157647310000e+02 
       3.265297882407e-01       7.695478812041e+02 
       3.376437220498e-01       7.196039041893e+02 
       3.491939705992e-01       6.684319268211e+02 
       3.612124217144e-01       6.216403015352e+02 
       3.737360095167e-01       5.815923725534e+02 
       3.868078269858e-01       5.453223615279e+02 
       4.004785581499e-01       5.088338144961e+02 
       4.148083483167e-01       4.720455035859e+02 
       4.298692845408e-01       4.376151968851e+02 
       4.457487418382e-01       4.065936040986e+02 
       4.625539829387e-01       3.772563098266e+02 
       4.804186151397e-01       3.481322128624e+02 
       4.995118705875e-01       3.203283434199e+02 
       5.200523072474e-01       2.945345571253e+02 
       5.423286679377e-01       2.694266389592e+02 
       5.667327863085e-01       2.450742691585e+02 
       5.938136937877e-01       2.217913909006e+02 
       6.243710236877e-01       1.989276555047e+02 
       6.596257769879e-01       1.765395567326e+02 
       7.015542815944e-01       1.542315171076e+02 
       7.535934250155e-01       1.317140545933e+02 
       8.222500464495e-01       1.084905305750e+02 
       9.209038690122e-01       8.410567142243e+01 
       1.076873221064e+00       5.892104201061e+01 
